4.301019905363837,3.3747764155481685,4.517661811113055,3.8243284471572982,3.576070759020274,3.5453162532427163,3.8909900874474195,3.7525149016173542,2.8019096195835305,3.2777337076603805,3.885369757181376,4.294642959904865,3.689930497802561,4.804322071269485,4.248853351546912,3.541467560479009,4.294679164227715,4.277290884097781,3.3416091908494163,3.726607846577211,4.66966712493044,4.47390445208218,4.582124107686651,4.538630159235827,4.46378690068373,3.8502091993000933,4.230010083913005,3.8179878092747312,4.197946468914617,3.9717816872894574,3.9229999439798924,3.406929876914828,4.489682603845325,4.489988219042105,2.9356819069858764,3.0901644378480113,4.827363616053136,4.133021739461289,3.7941423618032775,4.551965285989529,4.204381348353328,4.2350924633337135,2.844751255892853,4.118608922511822,3.6471429912228133,4.139622088273978,3.788892586220465,3.5370765903493426,4.4472222291007,4.719729238993617,4.4935112257227745,4.945175641786065,4.368098237182554,3.973715551050848,4.750335552055928,4.404033952894977,4.050537956212033,4.299926826935605,3.8058519555795725,3.6754856301625103,4.255679517706398,4.183585664554921,3.6006542462591016,4.168659585918802,3.7130390687691603,3.5603560814365647,4.382914040056067,4.449021997267866,3.7162806572603526,4.057720035523001,3.76068502296623,4.828824160607799,4.381659432493249,4.497141500229654,3.674842079481869,4.869193187161319,4.1763640756368146,3.325592034887166,3.366303570610667,3.5254030992145,4.5723294336336435,4.174347834487965,3.1569180053787442,3.6905176613612616,5.061088106172246,3.9525715952185188,3.7225512619410335,3.190981225160485,3.5443030573831193,4.1692230985100345,4.72909453710676,4.307314516169084,4.991283217529107,4.346818990204636,3.9398262314666996,3.331279981379712,3.9820182027062834,3.266924730754873,4.554110902568903,3.8693321919295154,4.259803246096985,4.6171161024891765,4.5266999302932085,3.4635175974644383,4.368029739761626,5.199391852230343,4.116580735785238,3.5583700002667342,3.780666061503509,4.399829367409245,3.190881008788752,3.8438515639150648,3.8353749676750097,4.060460248815678,4.357475853926242,4.0715610137720235,4.633869642133647,3.4374368771667636,2.9114667148131623,4.23512334655231,3.649175552673036,3.4752436157186857,4.072540038736462,3.7791871441984437,4.253940617999072,3.6079963590915787,3.6432215130231147,3.9877588112382645,4.2877779961481455,4.015689785379307,3.673074524125432,4.397792785810053,4.263448737943605,3.563455197530406,3.8205620825457585,5.0931516974201205,3.4474648061529782,3.7369746551735394,3.4309063618245794,3.9308968982876817,3.7700443506734764,4.107913478660309,3.427220824125187,3.667327069946219,3.9556819269823227,4.249573982191094,4.477243123169817,3.249106236571187,3.827793427220598,3.9608290689354027,3.4712894380360564,4.587917769534997,4.398800192994764,3.222593402184722,4.692589391301659,3.682989542272971,4.158963541126058,4.444908938414879,3.9397370869494495,3.983025748090115,3.864054168689059,3.6212669282468997,3.931310104356868,4.011876822618618,3.8749851395371353,3.310985829731318,4.225946423076585,4.3405107796263325,4.663420590475085,4.320291176273634,4.204573696477723,4.274432498704992,3.93869756555495,4.569762756134593,3.5242885832421513,5.039001906721517,3.6605068290822675,3.7905438527135678,3.7416996031273744,3.610716709871638,4.950808929318823,3.425019243417576,4.436653195678302,3.9927672506034244,4.008676011061585,3.7732321894155554,5.089835840559439,3.532373229242432,3.411567002441208,3.620664119056407,3.8236950784658488,3.83108421067072,4.2786246995418145,3.5841775009739365,3.7002969831346215,4.366952978094648,4.160938003641405,3.324079902738877,4.041862089680394,4.692153674922894,3.4866842883486244,4.040245526621307,2.990640100429208,4.527518409451409,3.840105896935488,4.087935404027517,4.13761936090778,3.9009275681511046,3.6045634493167364,3.469630183904254,2.8770084422910815,3.2897419588802363,4.320775444025194,3.5854406368536536,3.422645701114779,3.591004026864519,4.482316443024069,3.831241848854357,3.823256837411944,4.374161867105012,3.793368849205671,4.133085131639806,3.7734807249863107,4.640113014956503,3.425357643668365,4.32061427162769,3.2954585793096016,4.100692930610971,4.620058765819352,3.3223330394231714,4.045856911021952,4.052599479619327,4.834510631068289,2.702069800164649,4.707143565553605,2.910181460071543,4.616313310667777,3.74794159277397,4.6225346314454026,3.956642944267207,3.2847593673460205,4.077975783051943,4.092924602303262,3.058975424587117,4.9144065305419105,4.128181074910343,3.7978983629655674,4.016500223686871,4.163124565294251,5.1500215357248615,3.051241743943705,3.812320474833163,3.301819523688771,4.8974255670425055,3.359150674559868,4.048508122547655,4.121978147395,4.00339030760471,4.113611013623467,4.300096643227983,3.9692822455417662,3.6750320379794124,3.6774224687265304,4.483502266325667,5.012813212470628,4.141156783275231,4.722587535937695,3.8842419792134053,3.642026118328654,4.891831562828335,3.6150049229927594,4.894055007759517,3.9217011801006776,4.403137551378127,4.171028885236537,3.6959202139120477,3.655903807636462,3.2315079505715225,3.914694339039409,3.146523998425329,3.6653957606040013,3.74709790048872,4.270011210160165,3.8294940032484033,3.0752296652695135,4.152413508797009,3.814183739714935,3.915211068847253,4.153469807311927,3.619719670022662,4.454463752765754,4.241911433085122,3.903609494991304,4.487457606253252,3.769123865047226,3.2932072685109963,3.7732828874224693,4.44754505243726,3.8164184255816953,3.92551752500644,4.163907768100858,4.259107509045737,5.306518426400005,4.3103578460398,3.392426999543945,4.787697030628628,3.733556235878107,4.486901226629468,4.263292443057101,3.837575661040214,4.810895790425622,3.723447127517738,4.136147285833676,4.203944171382482,5.1748663408033,5.221127669265549,3.297001146533785,3.549501244268296,3.026560433057858,3.8212785321081557,3.954721545962031,4.3001729149748495,4.528216172085595,4.105535782045516,4.264240847034854,3.51638932690718,3.08270092446591,3.956968061449584,4.479318491698033,4.746637479285813,3.7767820326854515,4.091454721814047,3.8751612482066204,4.218710491585279,3.8795622962679834,3.7651205495375564,2.9775548395619946,3.1527315074062674,4.892085014498338,3.7956946848529287,4.412625035147832,4.417342214352228,2.930359372490317,4.064653488279514,4.6147897665126285,3.676991456270445,4.293818755752887,4.961454429366527,4.66080912825843,3.2383005612159224,3.9374465031163908,4.085172166845678,4.5111376930459794,5.1115690986714695,3.3583718716341524,4.76481926773543,4.516723279177205,3.5998667221822975,4.428707910787644,3.531363896048348,2.9235421662047383,3.373380690858718,3.818148479931092,3.1633014897531773,4.237285062797944,3.844486368905636,4.290529772830124,4.026904510794289,4.576835937234761,3.724576677370015,3.2396257144803786,4.695670245787085,3.8008470886048045,5.038865661184785,4.793294427889285,4.711689634677628,3.6712146394433667,3.8582756917756944,3.8148368180411945,3.8175426718855068,3.7560087438699217,3.9033702779094357,3.741433131591873,4.831486009320865,3.8581585254507282,3.6967130516226367,3.9053478886535777,3.610263004256777,3.4064097314233894,3.983430605365839,4.515673957778362,3.360669727056097,3.9560939026031967,4.084584050663925,4.008367678489596,4.03198628984956,3.8557632844840937,4.158504112864508,3.0841142622064357,4.934047261251415,3.6418787543006945,4.164071026128161,4.017479957136329,3.717167045024871,4.678808306014696,4.132761899633428,4.003818442039155,3.7685853645164493,4.209132735605973,3.8068699212625203,3.257184140832454,4.552705651561031,4.34845382355073,3.8250347360416703,3.8783361799498115,3.556689257692528,3.58527221588205,3.671322641860801,3.920245018065243,3.683842703450792,3.412176922549589,4.337883039765531,3.4168875748389356,4.497707146893383,3.5990387849640446,4.386998801677633,3.3952363504825227,4.42122604330979,3.7645383526936143,4.363228849069004,4.494277862523198,3.87916075979048,3.4589034160045964,3.3709341599445755,3.3519866114751604,4.394802501172522,3.789067776530281,3.7391833352178474,3.597742869264109,4.270270435390752,5.227113338460045,4.802047605801841,4.496790683840109,3.947264587600633,3.2995545429728046,2.978803656200773,4.3676909662278565,3.3827613659557296,3.282003000872653,3.6312204447535357,3.5492894946936304,3.594097298811674,4.135418288679511,3.3680269862774024,4.034047788507768,4.114914084710447,3.639114917602541,4.4043462447967086,4.438158469194793,4.429475386560783,3.9505583676419156,3.570762661604575,3.5710042924520637,3.4907987076943767,3.5567228009797294,4.092580053146453,4.622791373070894,4.496305426599201,4.73885286675,3.697492687877606,4.377388400624389,3.882652625355187,4.247898622710283,3.6201570292512497,4.384063380680888,3.651460581476997,4.0967083474030295,3.0061114016224137,5.111676506304381,3.3310411713100265,3.684774669655594,3.634008615532999,4.981561914673645,4.137965180581628,4.266584124495603,4.398334337332632,4.12743809223759,4.330488138152805,3.6928586614084264,4.6669313860478585,4.078626874833908,4.665319552248156,3.3546710429420523,4.990272707162852,4.912004115012798,3.7618953476936188,4.693154363698538,3.701359874771777,4.664736673791756,4.364101458877637,4.731521726959358,4.065735072302826,3.8407728444446727,3.6677572196742743,4.040969842904046,4.083702420874343,3.5974154347232883,4.214172955258593,3.8017735283872733,4.755018371601416,4.493655297889786,4.4987351791760934,4.141605474036802,4.056419241537289,3.6044066412392275,4.375482669603615,4.422334894921384,4.39131623228581,4.574862597575633,4.138778082261514,4.7057148436161285,4.70711060120334,3.206471134072781,3.218863278994739,3.6443879462022006,4.4643876686761095,4.143845317090015,4.966056969533517,3.4093775087120193,3.9955240554326252,4.596864033572152,4.015484429899297,3.9215434161149547,3.937099870717799,3.510412259367506,4.370472731856101,2.9350726908926106,3.9750794313396236,3.7579826713266304,3.870300833687354,3.0722818186639063,3.5807681695950535,4.375930013033731,3.1303677894620794,4.037019858688424,4.258071144168613,3.484145039300247,4.4927804412969925,4.518177413300949,3.9480606122299333,3.676670027934623,4.195321592323233,3.8800902664347503,3.9292055943011244,3.721820892583672,3.808398358411174,4.149282373442741,4.708990010826867,3.754019651836822,3.5474538574965235,4.497950193651642,3.4121179962996395,3.5902623150543502,4.374669713102267,2.339161593276236,4.07862855522307,3.948042528943247,3.111223678635628,4.842581977613462,3.8044019726633063,4.021143886675221,4.205367160018812,3.5624433951390397,3.9615611524725503,3.8889850102717536,3.5479346102956,3.77903879557314,3.4240174939746506,3.576063978210676,3.835232679013584,4.9525720523928465,3.8948097193065476,3.0145854496926674,4.846910027272096,4.1242753631276585,3.599345187793944,3.7118639632769312,3.911750887653409,4.532308101907709,3.944174498767572,4.24932147302423,4.1090265928981005,4.7967780746177375,4.114939870721055,3.9914226262885073,4.286551631428396,4.632196486697602,4.822723943459559,4.2056686794522555,3.9345944098656367,4.420269025456082,3.9823337101804457,4.191517601362426,3.1846969062622206,4.521751757790586,4.566872742073517,4.0031471262617,3.727029785565333,3.8677366609618202,4.610528791785372,4.710398343256697,4.382082719960492,4.250785757648814,4.783343597302123,4.376306045593521,4.00366898661967,2.906340204401317,3.839773287927978,4.094046289262738,4.407138694352871,3.7013129399286755,4.486324246526592,4.127707296087407,3.961077920882771,5.339438965198833,3.719162616196352,2.7237265144905276,3.85985708297084,4.995872363029288,3.793969052832725,4.088369180254444,3.4928728707607495,4.375379790739613,4.226224522689861,4.861570379790447,4.165684642098582,3.3230885692192142,4.420127268619077,3.343970517246908,3.560886018416408,3.7037199782073715,3.0830524346266377,3.9570622722524194,4.975643052414202,4.245867426775988,4.7203407317479344,3.2865454071452946,4.0346857853182465,3.69986680859592,3.5669515624808605,3.6210440698846575,4.867354799060635,4.696987334312365,4.116327971122099,4.680595820766783,4.180538769627942,3.881465415768783,4.078667873221527,3.9310150894238034,5.15339259088684,3.4850732077456144,2.943296732011519,4.057325827785936,4.197539624732434,4.535935714983999,4.318119330813762,4.260003336787099,3.7413377506403234,4.175684010987315,3.6363833264868943,3.913118221993138,3.7888269347523797,4.022954280507379,4.880790827787568,3.037666501543024,4.673858283353078,4.268292688688839,4.496958446723662,4.290264875612008,3.9626311015205586,4.269380491898076,5.245057996322851,3.618009681919617,3.737362745563616,3.969151540198762,3.494278606509763,4.350967277634448,3.8943808233849895,3.9729744660523525,3.493242201050882,4.450627062150596,3.3640446995168354,4.129397164640817,4.769820339196144,3.7797003097945177,4.491369464242413,3.128656855343296,3.9931837912282377,4.060415330323026,4.131603073875149,3.6415651766476826,3.9067690147893326,3.8031235925901155,2.8710317246358317,4.096538400760213,3.353648066518108,4.3108793933675855,4.852364839686055,4.147611617055493,3.3465592042642927,4.053172545413186,3.8435758976766956,4.540759740386379,4.449833608339521,5.103386721525138,4.037439038915501,4.883791666713947,4.041886031915455,4.140455313265741,4.107279321801107,4.441126744273121,4.104520501176185,4.029483998964395,3.77336274860726,4.270296676261812,4.142778570625617,4.037866259513036,3.8850303961990513,3.542785091502065,4.125981765973267,3.971924586303493,3.3550046488713514,4.35773109089768,3.751604043037861,4.404422723316706,4.26222727529628,3.41678171397517,4.162474505041498,4.689967267970671,4.3518815366384365,4.656813363438675,3.8991734223134933,4.373180435784237,3.659625528973071,4.450337082244864,3.4956915437031872,3.860918333765564,4.120667956446218,4.631423221463414,4.653178059767433,3.9980134273331154,3.6022640429504813,4.293039209980878,3.5246677419822756,3.2595406487602596,3.901515297414382,3.797470411909924,3.798795061751597,2.339124305733607,3.673260390150965,3.749952878006262,4.727388548239069,4.615335854191158,3.4347518455714945,4.27347656880581,4.394859294717408,4.899984298487378,4.189226085346659,4.48932605044966,3.743707527431986,5.142857918297163,4.90639738044513,4.071962960089841,3.586020439506502,4.053824472770319,3.93622578238593,2.9312057708206813,3.6570810808964156,4.33910523119121,4.053054522040901,4.729266450616092,4.258211612360253,3.2994656581582333,4.133755763546664,5.237763988504448,3.881543944298193,4.1818779978730465,3.6780649232199822,3.5898570303185093,4.388049694702025,3.977632442782593,3.1502100073083037,4.251484449190339,4.448883755545225,3.491834620815664,4.4951178231037945,3.6783533972624354,3.917365199633173,3.61156275719801,4.617203779542785,3.276700931222655,3.538707792764266,4.93378163941372,3.3638782201625324,4.981346299628059,4.433294201963523,3.614684319828687,4.86813640878351,3.849979962402985,5.175611149493193,3.571050040155453,4.640174687647518,3.186111038021722,4.174984859394486,3.750812356334239,4.589943753156505,4.484720846682147,4.635781982971883,3.178025875648294,4.108207271984494,4.506067220924663,4.267243825262426,3.4671761835722377,4.40913387764338,4.516952315812106,3.1326096451427916,3.5376704647724107,4.411955199270287,3.4166346850559344,4.136043224854004,4.431206540572688,4.0428219482080605,3.856445671708545,4.142743902081264,3.879519191304404,3.904873577129823,3.544420730370689,4.158211876842855,4.354417498790162,3.6656385389238304,4.771583791976681,3.940839141554467,4.431543475909268,4.062396340523661,3.8762146731336204,4.344457187432941,3.799925861175192,4.935680503320347,3.8788891849412295,3.22446358133122,3.4226340327945204,4.062658466356564,4.1432506739854515,4.005302447446236,4.3945173688032515,3.143004516171976,4.357082877688445,3.6798927302965807,4.432218649827421,4.350665127290642,3.6801466206706976,4.008655845801068,4.265279429697853,3.8503471697641345,4.0063536230694945,4.704293778666336,4.024550397599955,3.2989898872035424,3.7356268434670175,3.8271733310919647,3.8891125063788152,3.259469213478511,4.574962204757294,4.322013270960074,3.6975201490005873,3.5537935404409593,3.8367500658441367,4.133221605206508,3.4911016232035705,4.068509647097916,4.814279473431914,2.9713526159741184,3.7149170992994685,4.2139383191221285,3.954204615419789,4.811283927437876,3.9241449765814354,3.5250013733178185,4.722147425630498,4.307056767501364,4.121396798713679,3.893467667343687,3.904382726608532,3.7104481367258697,4.160953500818896,4.798704585435544,4.335825150855362,4.4095230466121125,3.569514289589347,4.16195785509749,4.744573139478846,4.21028984116451,2.5997925428909587,3.9467786446631026,3.5988789012615485,3.752926463233856,4.036640136778424,4.187670231799696,4.126165203462748,3.7893821724766754,3.786019683162784,3.189446893090902,4.578969283349937,3.5601205202350155,3.8604852297739463,4.680942912853748,4.244205037100639,4.02462973817232,4.199134564141895,4.083852926682531,3.2409746059304743,4.733317821463692,3.7513711932100064,3.436427437242845,4.501667602996013,5.068891475721312,4.751236457000645,4.139764243297697,4.072902179004659,5.022668222909908,4.291524961647199,2.8986583032943454,4.314647193677153,3.5293457400900516,4.018758943638774,3.824759546419204,4.069656240600319,3.929764900775019,3.603137751401213,4.3385126881441884,3.943987341033942,4.068459079353448,4.757699990740281,3.6818041070493077,4.919843886777998,3.093894464854736,4.56906502858774,4.206031973076441,4.170870101057598,3.3650972917153466,4.2715748092694,3.9774974641765675,3.821713689295074,3.6939992645489363,3.2058573584015457,4.147483545750523,3.5485056094501086,3.757446228634494,3.4501665283805685,4.338440043352964,4.9200938322701155,3.4392092870003355,4.006659347885254,4.131789180255299,3.515665182428485,4.2005685507184225,3.7879740115951925,4.042128999314765,4.118750680891729,3.388264854112847,4.430145010658299,3.5585764749473485,3.924013241198197,3.2840881390636834,3.556790710094054,4.193814928248839,3.7002100061787244,4.2744414844672525,3.6854747112931383,3.796758421703804,4.509773353029662,3.817376785247868,3.2716118459995895,3.8008675646138097,4.067069826428256,3.5702229293331906,4.3372117175066505,4.552427742777461,4.385822098336881,4.2399287956621805,3.976402853563517,3.7976235407364385,3.0240604337785126,4.134881248076016,4.110463904697834,4.447348210893169,4.135480051436642,3.3324898515166996,3.308297215073827,3.637347677464482
